,Data_Point,Test_Time(s),Date_Time,Step_Time(s),Step_Index,Cycle_Index,Current(A),Voltage(V),Charge_Capacity(Ah),Discharge_Capacity(Ah),Charge_Energy(Wh),Discharge_Energy(Wh),dV/dt(V/s),Internal_Resistance(Ohm),Is_FC_Data,AC_Impedance(Ohm),ACI_Phase_Angle(Deg),roundedV,dV,Charge_dQ,dQ/dV,G_Smoothed_dQ/dV
0,21329,702287.3769197261,2010-09-15 13:49:29,30.015274507906277,2,45,0.5498448610305786,3.411327838897705,47.66846822893772,47.96466516118452,189.3369605249129,179.84573997134487,0.0026242733001708,0.0956125855445861,0,0,0,3.411,0.2284080982208252,0.0,0.0,0.07015321272951519
1,21330,702317.392162565,2010-09-15 13:49:59,60.03051735177424,2,45,0.5498448610305786,3.489731788635254,47.67305359469498,47.96466516118452,189.35279415177203,179.84573997134487,0.0017495155334472,0.0956125855445861,0,0,0,3.49,0.07840394973754883,0.004585365757257875,0.05848386175195298,0.0771515130707631
2,21331,702347.4074351582,2010-09-15 13:50:29,90.04578995492595,2,45,0.5500248074531555,3.5467529296875,47.67763895184845,47.96466516118452,189.3689323857341,179.84573997134487,0.0013931274879723,0.0956125855445861,0,0,0,3.547,0.057021141052246094,0.004585357153473524,0.08041503675403745,0.0905425490177844
3,21332,702377.4226863829,2010-09-15 13:50:59,120.06104116968896,2,45,0.5500248074531555,3.5911386013031006,47.6822243418876,47.96466516118452,189.3853002737912,179.84573997134487,0.0011015415657311,0.0956125855445861,0,0,0,3.591,0.044385671615600586,0.004585390039146375,0.10330788906063802,0.10957604210582869
4,21333,702407.4379483646,2010-09-15 13:51:29,150.0763031463152,2,45,0.5498448610305786,3.627748727798462,47.68680975359765,47.96466516118452,189.4018533089352,179.84573997134487,0.0009071826934814,0.0956125855445861,0,0,0,3.628,0.03661012649536133,0.004585411710053222,0.12524981880721486,0.1341735826124666
5,21334,702437.4532237046,2010-09-15 13:51:59,180.091578491311,2,45,0.5500248074531555,3.658851146697998,47.69139520421677,47.96466516118452,189.41856130347207,179.84573997134487,0.0007775783305987,0.0956125855445861,0,0,0,3.659,0.031102418899536133,0.004585450619117637,0.1474306752130467,0.1658682938520494
6,21335,702467.4684733204,2010-09-15 13:52:29,210.1068281070827,2,45,0.5498448610305786,3.685741662979126,47.695980626416336,47.96466516118452,189.43540180981748,179.84573997134487,0.0006479740259237,0.0956125855445861,0,0,0,3.686,0.02689051628112793,0.0045854221995682565,0.17052191009015166,0.20863257739003613
7,21336,702497.4837464147,2010-09-15 13:52:59,240.12210121649807,2,45,0.5502047538757324,3.709554433822632,47.70056597656288,47.96466516118452,189.45235756955373,179.84573997134487,0.0006479740259237,0.0956125855445861,0,0,0,3.71,0.02381277084350586,0.0045853501465416,0.1925584459144158,0.26923860015434986
8,21337,702527.4992071124,2010-09-15 13:53:29,270.1375618991251,2,45,0.5498448610305786,3.7299654483795166,47.70515143041746,47.96466516118452,189.46941516236103,179.84573997134487,0.000518369663041,0.0956125855445861,0,0,0,3.73,0.020411014556884766,0.00458545385458109,0.22465585146694175,0.35670624375011434
9,21338,702557.5145936449,2010-09-15 13:53:59,300.1529484517121,2,45,0.5500248074531555,3.7479465007781982,47.70973685324519,47.96466516118452,189.48656124345297,179.84573997134487,0.0003888130304403,0.0956125855445861,0,0,0,3.748,0.01798105239868164,0.0045854228277306674,0.2550141519006345,0.48026460086453837
10,21339,702587.5295338935,2010-09-15 13:54:29,330.16788867519307,2,45,0.5500248074531555,3.762849569320679,47.7143221742566,47.96466516118452,189.5037828282661,179.84573997134487,0.0003239631769247,0.0956125855445861,0,0,0,3.763,0.014903068542480913,0.004585321011411736,0.30767630158456066,0.6458245292861001
11,21340,702617.5447978249,2010-09-15 13:54:59,360.1831526317616,2,45,0.5498448610305786,3.773703098297119,47.718907633910526,47.96466516118452,189.52106449221623,179.84573997134487,0.0001944065152201,0.0956125855445861,0,0,0,3.774,0.010853528976439986,0.0045854596539243175,0.42248559559550486,0.8519239613350923
12,21341,702647.5600577063,2010-09-15 13:55:29,390.1984124931079,2,45,0.5502047538757324,3.779696702957153,47.72349303817457,47.96466516118452,189.5383836063749,179.84573997134487,0.0001619815884623,0.0956125855445861,0,0,0,3.78,0.005993604660033736,0.004585404264041415,0.7650495026169453,1.0871514930908415
13,21342,702677.5754619682,2010-09-15 13:55:59,420.2138167448748,2,45,0.5500248074531555,3.782936573028565,47.728078509268045,47.96466516118452,189.55572282718296,179.84573997134487,9.71794142969884e-05,0.0956125855445861,0,0,0,3.783,0.003239870071412021,0.004585471093477622,1.4153256125728377,1.3310188895515502
14,21343,702707.5905872836,2010-09-15 13:56:29,450.2289420653863,2,45,0.5500248074531555,3.785042524337769,47.73266394553371,47.96466516118452,189.5730738377968,179.84573997134487,9.71794142969884e-05,0.0956125855445861,0,0,0,3.785,0.0021059513092041016,0.0045854362656641,2.1773705050175476,1.5588731373458227
15,21344,702737.6059826332,2010-09-15 13:56:59,480.2443374349819,2,45,0.5500248074531555,3.786986351013184,47.737249400171606,47.96466516118452,189.5904345711409,179.84573997134487,6.480216688942164e-05,0.0956125855445861,0,0,0,3.787,0.001943826675415039,0.004585454637897612,2.3589832858521413,1.7490628846190814
16,21345,702767.6211415876,2010-09-15 13:57:29,510.25949638944905,2,45,0.5500248074531555,3.789092302322388,47.74183481014825,47.96466516118452,189.6078045361189,179.84573997134487,0.0,0.0956125855445861,0,0,0,3.789,0.0021059513092041016,0.004585409976641586,2.1773580218122617,1.889012016763028
17,21346,702797.6365276941,2010-09-15 13:57:59,540.2748824758726,2,45,0.5502047538757324,3.7913601398468018,47.7464203434572,47.96466516118452,189.62518460505075,179.84573997134487,6.480216688942164e-05,0.0956125855445861,0,0,0,3.791,0.0022678375244136184,0.004585533308954837,2.02198493480722,1.9775116731798323
18,21347,702827.6516499319,2010-09-15 13:58:29,570.2900047136892,2,45,0.5498448610305786,3.793466091156006,47.75100581826514,47.96466516118452,189.64257439420572,179.84573997134487,6.480216688942164e-05,0.0956125855445861,0,0,0,3.793,0.0021059513092041016,0.004585474807939249,2.1773888066159657,2.0225771219300768
19,21348,702857.6669286203,2010-09-15 13:58:59,600.305283407043,2,45,0.5500248074531555,3.79573392868042,47.75559131015834,47.96466516118452,189.6599743269022,179.84573997134487,3.237724376958795e-05,0.0956125855445861,0,0,0,3.796,0.0022678375244140625,0.004585491893195126,2.0219666725815695,2.0368109614642145
20,21349,702887.6821816546,2010-09-15 13:59:29,630.3205364463603,2,45,0.5500248074531555,3.798001766204834,47.76017674367214,47.96466516118452,189.6773844135412,179.84573997134487,6.480216688942164e-05,0.0956125855445861,0,0,0,3.798,0.0022678375244140625,0.004585433513803139,2.021940930264777,2.032709821904241
21,21350,702917.6974518417,2010-09-15 13:59:59,660.3358066435063,2,45,0.5500248074531555,3.800269603729248,47.7647622231095,47.96466516118452,189.6948051536341,179.84573997134487,6.47544875391759e-05,0.0956125855445861,0,0,0,3.8,0.0022678375244140625,0.004585479437359652,2.021961180197155,2.019743185555048
22,21351,702947.712701262,2010-09-15 14:00:29,690.3510560437398,2,45,0.5500248074531555,3.802537679672241,47.769347689434845,47.96466516118452,189.71223630808325,179.84573997134487,3.24249267578125e-05,0.0956125855445861,0,0,0,3.803,0.002268075942993164,0.004585466325345067,2.021742851914235,2.003474683478766
23,21352,702977.7279872536,2010-09-15 14:00:59,720.3663420353113,2,45,0.5500248074531555,3.804967403411865,47.77393316859816,47.96466516118452,189.7296780340122,179.84573997134487,6.480216688942164e-05,0.0956125855445861,0,0,0,3.805,0.0024297237396235793,0.00458547916331753,1.8872430180181419,1.9859764112499203
24,21353,703007.7432423179,2010-09-15 14:01:29,750.381597104696,2,45,0.5500248074531555,3.8072352409362793,47.77851864803218,47.96466516118452,189.7471303065577,179.84573997134487,9.71794142969884e-05,0.0956125855445861,0,0,0,3.807,0.0022678375244145066,0.004585479434020101,2.0219611787241885,1.9668489168920777
25,21354,703037.7585010014,2010-09-15 14:01:59,780.3968557830893,2,45,0.5500248074531555,3.809503316879273,47.78310412628591,47.96466516118452,189.7645932660162,179.84573997134487,6.480216688942164e-05,0.0956125855445861,0,0,0,3.81,0.002268075942993608,0.004585478253730457,2.0217481111669198,1.9443171339613872
26,21355,703067.7737529479,2010-09-15 14:02:29,810.4121077346916,2,45,0.5498448610305786,3.811933040618897,47.78768961964079,47.96466516118452,189.78206700880835,179.84573997134487,6.480216688942164e-05,0.0956125855445861,0,0,0,3.812,0.0024297237396240234,0.004585493354873904,1.8872488588284795,1.9162630072357234
27,21356,703097.7890235211,2010-09-15 14:02:59,840.4273783228134,2,45,0.5498448610305786,3.814200878143311,47.792275096120704,47.96466516118452,189.79955167398057,179.84573997134487,6.47544875391759e-05,0.0956125855445861,0,0,0,3.814,0.0022678375244140625,0.004585476479917361,2.021959876116832,1.881182932416624
28,21357,703127.8042815928,2010-09-15 14:03:29,870.4426363846678,2,45,0.5498448610305786,3.816792964935303,47.796860586571626,47.96466516118452,189.81704763503728,179.84573997134487,3.24249267578125e-05,0.0956125855445861,0,0,0,3.817,0.0025920867919921875,0.00458549045092127,1.7690343028201698,1.8388739574280772
29,21358,703157.819558983,2010-09-15 14:03:59,900.4579137697561,2,45,0.5498448610305786,3.819060802459717,47.80144608270891,47.96466516118452,189.8345553464926,179.84573997134487,3.24249267578125e-05,0.0956125855445861,0,0,0,3.819,0.0022678375244136184,0.004585496137281098,2.021968544006142,1.7907398982291696
30,21359,703187.8348559369,2010-09-15 14:04:29,930.4732108540164,2,45,0.5498448610305786,3.821976661682129,47.80603154233785,47.96466516118452,189.85207480421087,179.84573997134487,6.480216688942164e-05,0.0956125855445861,0,0,0,3.822,0.0029158592224121094,0.004585459628941635,1.572592940597581,1.7395767318811648
31,21360,703217.8501903544,2010-09-15 14:04:59,960.4885451461532,2,45,0.5498448610305786,3.824730396270752,47.81061704993386,47.96466516118452,189.86960685369235,179.84573997134487,3.237724376958795e-05,0.0956125855445861,0,0,0,3.825,0.002753734588623047,0.004585507596011951,1.6651959179206328,1.6889135404337483
32,21361,703247.865472782,2010-09-15 14:05:29,990.5038275638036,2,45,0.5498448610305786,3.827484369277954,47.81520248721381,47.96466516118452,189.88715136713373,179.84573997134487,9.722709364723414e-05,0.0956125855445861,0,0,0,3.827,0.0027539730072021484,0.0045854372799496446,1.665026225005793,1.6421686466592118
33,21362,703277.8806305586,2010-09-15 14:05:59,1020.5189853403302,2,45,0.5500248074531555,3.830724239349365,47.81978796476007,47.96466516118452,189.90470939221103,179.84573997134487,9.722709364723414e-05,0.0956125855445861,0,0,0,3.831,0.0032398700714106887,0.004585477546257266,1.4153276042519445,1.6019405366818513
34,21363,703307.8959863143,2010-09-15 14:06:29,1050.534341091031,2,45,0.5498448610305786,3.833477973937988,47.82437338067772,47.96466516118452,189.922280929726,179.84573997134487,3.237724376958795e-05,0.0956125855445861,0,0,0,3.833,0.002753734588623047,0.004585415917652824,1.6651626255476113,1.569779481300401
35,21364,703337.9111282564,2010-09-15 14:06:59,1080.5494830430573,2,45,0.5500248074531555,3.8365557193756095,47.82895885569364,47.96466516118452,189.939866698754,179.84573997134487,6.47544875391759e-05,0.0956125855445861,0,0,0,3.837,0.0030777454376216262,0.0045854750159222135,1.4898811837621333,1.5462830306179112
36,21365,703367.9263849197,2010-09-15 14:07:29,1110.5647397114335,2,45,0.5498448610305786,3.8397955894470215,47.83354428782598,47.96466516118452,189.95746651301656,179.84573997134487,9.71794142969884e-05,0.0956125855445861,0,0,0,3.84,0.003239870071412021,0.00458543213233753,1.415313587047359,1.5314349475446472
37,21366,703397.9418003844,2010-09-15 14:08:00,1140.5801551661648,2,45,0.5498448610305786,3.8427114486694336,47.83812978845867,47.96466516118452,189.97508089569612,179.84573997134487,6.480216688942164e-05,0.0956125855445861,0,0,0,3.843,0.0029158592224121094,0.00458550063269314,1.572607002919654,1.5248292124052298
38,21367,703427.9569078403,2010-09-15 14:08:30,1170.5952626270962,2,45,0.5500248074531555,3.8459513187408447,47.84271522129996,47.96466516118452,189.9927092206817,179.84573997134487,9.71794142969884e-05,0.0956125855445861,0,0,0,3.846,0.003239870071411133,0.00458543284128865,1.415313805868596,1.5258559635236353
39,21368,703457.9723013452,2010-09-15 14:09:00,1200.610656147075,2,45,0.5498448610305786,3.848867177963257,47.84730064274346,47.96466516118452,190.0103514640176,179.84573997134487,6.480216688942164e-05,0.0956125855445861,0,0,0,3.849,0.0029158592224121094,0.004585421443501048,1.5725798448211135,1.5337925301049433
40,21369,703487.9897252083,2010-09-15 14:09:30,1230.628080075265,2,45,0.5500248074531555,3.851944923400879,47.85188645505495,47.96466516118452,190.028009017348,179.84573997134487,6.47544875391759e-05,0.0956125855445861,0,0,0,3.852,0.0030777454376220703,0.00458581231148969,1.48999077553106,1.5479883710565492
41,21370,703518.0027919152,2010-09-15 14:10:00,1260.641146812235,2,45,0.5498448610305786,3.854860782623291,47.85647156540422,47.96466516118452,190.04567741636785,179.84573997134487,3.237724376958795e-05,0.0956125855445861,0,0,0,3.855,0.0029158592224121094,0.004585110349268007,1.5724731544052493,1.5680811825947614
42,21371,703548.0179708947,2010-09-15 14:10:30,1290.65632569645,2,45,0.5500248074531555,3.857776641845703,47.86105700057142,47.96466516118452,190.0633603307014,179.84573997134487,3.237724376958795e-05,0.0956125855445861,0,0,0,3.858,0.0029158592224121094,0.004585435167200558,1.572584551392475,1.5941542670505713
43,21372,703578.0332301545,2010-09-15 14:11:00,1320.6715849462696,2,45,0.5502047538757324,3.8606925010681152,47.86564245049791,47.96466516118452,190.08105653054147,179.84573997134487,0.0001295566617045,0.0956125855445861,0,0,0,3.861,0.0029158592224121094,0.004585449926487684,1.5725896131207684,1.6268184690056877
44,21373,703608.048530928,2010-09-15 14:11:30,1350.6868857247516,2,45,0.5498448610305786,3.863446474075317,47.87022787887545,47.96466516118452,190.0987657100314,179.84573997134487,6.480216688942164e-05,0.0956125855445861,0,0,0,3.863,0.0027539730072017043,0.004585428377538392,1.6650229924357969,1.6672050589894745
45,21374,703638.0638919218,2010-09-15 14:12:00,1380.7022466934773,2,45,0.5502047538757324,3.8663623332977295,47.87481337687713,47.96466516118452,190.11648802532025,179.84573997134487,6.480216688942164e-05,0.0956125855445861,0,0,0,3.866,0.0029158592224125535,0.004585498001681287,1.5726061006084138,1.7169947120806677
46,21375,703668.0790278136,2010-09-15 14:12:30,1410.7173825954014,2,45,0.5500248074531555,3.8687920570373535,47.879398782846486,47.96466516118452,190.13422244594068,179.84573997134487,6.47544875391759e-05,0.0956125855445861,0,0,0,3.869,0.0024297237396240234,0.004585405969358192,1.8872128936221118,1.7784274547679784
47,21376,703698.0944158449,2010-09-15 14:13:00,1440.7327706467297,2,45,0.5500248074531555,3.871546030044556,47.88398425829987,47.96466516118452,190.1519693737969,179.84573997134487,9.71794142969884e-05,0.0956125855445861,0,0,0,3.872,0.0027539730072025925,0.00458547545338206,1.665040086227953,1.854316164307799
48,21377,703728.1095495414,2010-09-15 14:13:30,1470.7479043281114,2,45,0.5498448610305786,3.873975992202759,47.88856966754472,47.96466516118452,190.16972771144447,179.84573997134487,0.0,0.0956125855445861,0,0,0,3.874,0.002429962158202681,0.004585409244853622,1.8870290754837167,1.9480810206682813
49,21378,703758.125065913,2010-09-15 14:14:00,1500.763420799997,2,45,0.5500248074531555,3.876405715942383,47.89315522480457,47.96466516118452,190.18749775303863,179.84573997134487,9.71794142969884e-05,0.0956125855445861,0,0,0,3.876,0.0024297237396240234,0.004585557259851214,1.8872751601631819,2.063292991515058
50,21379,703788.1400717853,2010-09-15 14:14:30,1530.7784265670848,2,45,0.5500248074531555,3.878511667251587,47.89774069403007,47.96466516118452,190.20527775602497,179.84573997134487,3.24249267578125e-05,0.0956125855445861,0,0,0,3.879,0.0021059513092041016,0.004585469225496297,2.1773861558220333,2.2032184210914476
51,21380,703818.1555042675,2010-09-15 14:15:00,1560.7938590743818,2,45,0.5500248074531555,3.880617618560791,47.902326106337135,47.96466516118452,190.2230673409419,179.84573997134487,6.480216688942164e-05,0.0956125855445861,0,0,0,3.881,0.0021059513092041016,0.0045854123070654396,2.1773591284018794,2.37009175166877
52,21381,703848.170605959,2010-09-15 14:15:30,1590.8089607458617,2,45,0.5500248074531555,3.882561445236206,47.90691159060501,47.96466516118452,190.2408662793714,179.84573997134487,9.71794142969884e-05,0.0956125855445861,0,0,0,3.883,0.001943826675415039,0.0045854842678778596,2.358998528970585,2.5643964788561506
53,21382,703878.1858888329,2010-09-15 14:16:00,1620.8242436346882,2,45,0.5500248074531555,3.884343385696411,47.91149715125158,47.96466516118452,190.2586739497988,179.84573997134487,6.480216688942164e-05,0.0956125855445861,0,0,0,3.884,0.0017819404602050781,0.004585560646567899,2.5733523363851116,2.784342177034177
54,21383,703908.203347964,2010-09-15 14:16:30,1650.841702775775,2,45,0.5502047538757324,3.885801315307617,47.91608315662495,47.96466516118452,190.2764910053924,179.84573997134487,0.0,0.0956125855445861,0,0,0,3.886,0.0014579296112060547,0.004586005373369062,3.1455602095737287,3.026028938480387
55,21384,703938.216405107,2010-09-15 14:17:00,1680.8547598887224,2,45,0.5500248074531555,3.8872592449188232,47.92066845581703,47.96466516118452,190.2943122808154,179.84573997134487,3.24249267578125e-05,0.0956125855445861,0,0,0,3.887,0.0014579296112060547,0.004585299192079617,3.1450758368824703,3.2841241087567807
56,21385,703968.2316836851,2010-09-15 14:17:30,1710.8700384768133,2,45,0.5500248074531555,3.88855504989624,47.9252540544285,47.96466516118452,190.31214093242625,179.84573997134487,0.0,0.0956125855445861,0,0,0,3.889,0.001295804977416548,0.004585598611470232,3.538803054000116,3.5521962766384405
57,21386,703998.2473554446,2010-09-15 14:18:00,1740.8857102714082,2,45,0.5500248074531555,3.8896889686584473,47.92983970468059,47.96466516118452,190.32997553570635,179.84573997134487,0.0,0.0956125855445861,0,0,0,3.89,0.0011339187622074753,0.004585650252089124,4.044073001457294,3.822658725406425
58,21387,704028.2622109716,2010-09-15 14:18:30,1770.9005657734117,2,45,0.5498448610305786,3.8908231258392334,47.9344251605241,47.96466516118452,190.3478145208828,179.84573997134487,0.0,0.0956125855445861,0,0,0,3.891,0.0011341571807861328,0.004585455843510999,4.043051458116787,4.08606216530343
59,21388,704058.2774538706,2010-09-15 14:19:00,1800.9158086724167,2,45,0.5500248074531555,3.8921189308166495,47.93901071815712,47.96466516118452,190.3656587992313,179.84573997134487,9.71794142969884e-05,0.0956125855445861,0,0,0,3.892,0.001295804977416104,0.004585557633021153,3.5387714300688757,4.3313232722796915
60,21389,704088.2927261931,2010-09-15 14:19:30,1830.9310809798303,2,45,0.5500248074531555,3.8929288387298575,47.94359626365582,47.96466516118452,190.38350755809884,179.84573997134487,0.0,0.0956125855445861,0,0,0,3.893,0.0008099079132080078,0.004585545498699162,5.661810958897818,4.547678713525796
61,21390,704118.3079952524,2010-09-15 14:20:00,1860.946350039136,2,45,0.5498448610305786,3.8937387466430655,47.94818176955659,47.96466516118452,190.40136057902671,179.84573997134487,0.0,0.0956125855445861,0,0,0,3.894,0.0008099079132080078,0.00458550590077067,5.661762067007955,4.727767058872076
62,21391,704148.3232485022,2010-09-15 14:20:30,1890.9616032889787,2,45,0.5500248074531555,3.894710779190064,47.95276725124496,47.96466516118452,190.4192177996167,179.84573997134487,0.0,0.0956125855445861,0,0,0,3.895,0.0009720325469984026,0.004585481688366144,4.717415792841431,4.869845436152098
63,21392,704178.3385106593,2010-09-15 14:21:00,1920.976865446056,2,45,0.5500248074531555,3.8958446979522714,47.95735276985981,47.96466516118452,190.4370793198252,179.84573997134487,6.480216688942164e-05,0.0956125855445861,0,0,0,3.896,0.0011339187622074753,0.0045855186148529015,4.043956910921878,4.977170720500498
64,21393,704208.3537795482,2010-09-15 14:21:30,1950.9921343499736,2,45,0.5500248074531555,3.8966546058654794,47.9619382877565,47.96466516118452,190.4549450323746,179.84573997134487,3.237724376958795e-05,0.0956125855445861,0,0,0,3.897,0.0008099079132080078,0.004585517896693148,5.6617768784726685,5.054895004742398
65,21395,704268.3843339124,2010-09-15 14:22:30,2011.022688699099,2,45,0.5500248074531555,3.8982746601104736,47.971109417109446,47.96466516118452,190.4906885902544,179.84573997134487,0.0,0.0956125855445861,0,0,0,3.898,0.001620054244994229,0.009171129352942842,5.66100140244101,5.1069335306281864
66,21396,704298.3995921497,2010-09-15 14:23:00,2041.037946936391,2,45,0.5500248074531555,3.899246692657471,47.97569491328313,47.96466516118452,190.5085661956903,179.84573997134487,3.24249267578125e-05,0.0956125855445861,0,0,0,3.899,0.0009720325469975144,0.004585496173682202,4.717430694935287,5.134613331209645
67,21397,704328.4147724875,2010-09-15 14:23:30,2071.0531270787465,2,45,0.5498448610305786,3.900056600570679,47.98028042620823,47.96466516118452,190.526448012791,179.84573997134487,3.24249267578125e-05,0.0956125855445861,0,0,0,3.9,0.0008099079132080078,0.004585512925103785,5.661770740010158,5.137727435065064
68,21398,704358.4301438672,2010-09-15 14:24:00,2101.0684986639726,2,45,0.5500248074531555,3.9010283946990967,47.98486596259393,47.96466516118452,190.54433398406707,179.84573997134487,3.237724376958795e-05,0.0956125855445861,0,0,0,3.901,0.0009717941284175247,0.004585536385697253,4.718629441777312,5.116513208115391
69,21399,704388.4451364964,2010-09-15 14:24:30,2131.0834909674536,2,45,0.5498448610305786,3.901838541030884,47.989451404498375,47.96466516118452,190.56222379490487,179.84573997134487,3.24249267578125e-05,0.0956125855445861,0,0,0,3.902,0.0008101463317871094,0.004585441904445986,5.660016869212895,5.073115943170701
70,21401,704448.476265896,2010-09-15 14:25:30,2191.1146206928065,2,45,0.5498448610305786,3.9036202430725098,47.9986224967015,47.96466516118452,190.59801661899223,179.84573997134487,0.0,0.0956125855445861,0,0,0,3.904,0.0017817020416259766,0.009171092203125397,5.14737705231335,5.012073331441273
71,21402,704478.4914926196,2010-09-15 14:26:00,2221.129847416436,2,45,0.5500248074531555,3.904592275619507,48.00320792549797,47.96466516118452,190.6159188530641,179.84573997134487,3.237724376958795e-05,0.0956125855445861,0,0,0,3.905,0.0009720325469970703,0.0045854287964672835,4.717361379136108,4.939278338123553
72,21403,704508.5064377503,2010-09-15 14:26:30,2251.144792537141,2,45,0.5500248074531555,3.905564308166504,48.007793387209,47.96466516118452,190.6338253775185,179.84573997134487,3.24249267578125e-05,0.0956125855445861,0,0,0,3.906,0.0009720325469970703,0.004585461711030803,4.717395240721937,4.86037005296906
73,21404,704538.5217023285,2010-09-15 14:27:00,2281.1600571152608,2,45,0.5500248074531555,3.906536102294922,48.01237888296136,47.96466516118452,190.651736394594,179.84573997134487,0.0,0.0956125855445861,0,0,0,3.907,0.0009717941284179688,0.004585495752358781,4.718587629072975,4.7791285742038685
74,21405,704568.5369651322,2010-09-15 14:27:30,2311.175319918952,2,45,0.5500248074531555,3.907508134841919,48.01696446493668,47.96466516118452,190.6696521323786,179.84573997134487,3.237724376958795e-05,0.0956125855445861,0,0,0,3.908,0.0009720325469970703,0.004585581975319997,4.717518965271661,4.697400105329967
75,21407,704628.5675028999,2010-09-15 14:28:30,2371.2058576766626,2,45,0.5496649146080017,3.909290075302124,48.02613541956557,47.96466516118452,190.70549589553275,179.84573997134487,3.24249267578125e-05,0.0956125855445861,0,0,0,3.909,0.0017819404602050781,0.009170954628892503,5.146611143133843,4.616127847715713
76,21408,704658.582799528,2010-09-15 14:29:00,2401.221154334859,2,45,0.5500248074531555,3.910423994064331,48.03072088940743,47.96466516118452,190.72342473803425,179.84573997134487,6.480216688942164e-05,0.0956125855445861,0,0,0,3.91,0.0011339187622070312,0.004585469841856593,4.04391389814518,4.536803460312617
77,21409,704688.5980554244,2010-09-15 14:29:30,2431.2364102112583,2,45,0.5498448610305786,3.911396026611328,48.035306289544735,47.96466516118452,190.74135802891672,179.84573997134487,0.0,0.0956125855445861,0,0,0,3.911,0.0009720325469970703,0.004585400137308682,4.717331895392286,4.461853852986174
78,21410,704718.6134600071,2010-09-15 14:30:00,2461.251814793851,2,45,0.5500248074531555,3.912529945373535,48.03989173354539,47.96466516118452,190.75929630958856,179.84573997134487,3.24249267578125e-05,0.0956125855445861,0,0,0,3.913,0.0011339187622070312,0.004585444000653638,4.043891108855668,4.393397014161182
79,21411,704748.6286926556,2010-09-15 14:30:30,2491.267047472344,2,45,0.5500248074531555,3.913663864135742,48.04447715453426,47.96466516118452,190.77723925770465,179.84573997134487,3.24249267578125e-05,0.0956125855445861,0,0,0,3.914,0.0011339187622070312,0.004585420988874489,4.043870814827634,4.33158736609316
80,21412,704778.647458373,2010-09-15 14:31:00,2521.2858132900974,2,45,0.5500248074531555,3.91463565826416,48.04906311910964,47.96466516118452,190.79518926556068,179.84573997134487,3.237724376958795e-05,0.0956125855445861,0,0,0,3.915,0.0009717941284179688,0.004585964575376522,4.719070059460267,4.274120033382235
81,21413,704808.659536427,2010-09-15 14:31:30,2551.2978913191005,2,45,0.5498448610305786,3.9157698154449454,48.05364800063363,47.96466516118452,190.8131399624372,179.84573997134487,3.24249267578125e-05,0.0956125855445861,0,0,0,3.916,0.0011341571807852446,0.0045848815239892815,4.042545073703889,4.2174838205563105
82,21414,704838.675231229,2010-09-15 14:32:00,2581.31358601085,2,45,0.5498448610305786,3.916741609573364,48.058233528893766,47.96466516118452,190.83109821675004,179.84573997134487,3.237724376958795e-05,0.0956125855445861,0,0,0,3.917,0.0009717941284184128,0.004585528260136584,4.718621080371719,4.158795630013554
83,21415,704868.690601897,2010-09-15 14:32:30,2611.328956799088,2,45,0.5500248074531555,3.91803765296936,48.0628190239939,47.96466516118452,190.8490615186392,179.84573997134487,6.480216688942164e-05,0.0956125855445861,0,0,0,3.918,0.0012960433959960938,0.004585495100137393,3.5380721928783423,4.0970777491058215
84,21416,704898.7053914345,2010-09-15 14:33:00,2641.34374621112,2,45,0.5500248074531555,3.919171571731568,48.0674044409442,47.96466516118452,190.86702951599383,179.84573997134487,6.480216688942164e-05,0.0956125855445861,0,0,0,3.919,0.0011339187622079194,0.004585416950298793,4.043867253215089,4.033087290817
85,21417,704928.7207545334,2010-09-15 14:33:30,2671.359109335225,2,45,0.5500248074531555,3.9203054904937744,48.07198991351057,47.96466516118452,190.88500310889023,179.84573997134487,6.480216688942164e-05,0.0956125855445861,0,0,0,3.92,0.0011339187622065872,0.0045854725663687645,4.043916300886944,3.968446043301058
86,21418,704958.7359212924,2010-09-15 14:34:00,2701.374276069111,2,45,0.5500248074531555,3.921439409255981,48.07657540240752,47.96466516118452,190.9029820628602,179.84573997134487,6.480216688942164e-05,0.0956125855445861,0,0,0,3.921,0.0011339187622065872,0.004585488896950096,4.043930702784043,3.905198983332328
87,21419,704988.7513319,2010-09-15 14:34:30,2731.3896866917808,2,45,0.5498448610305786,3.922573328018189,48.081160924885815,47.96466516118452,190.92096667654127,179.84573997134487,3.237724376958795e-05,0.0956125855445861,0,0,0,3.923,0.0011339187622079194,0.004585522478294024,4.043960318078947,3.845558369925235
88,21420,705018.7664564787,2010-09-15 14:35:00,2761.404811265428,2,45,0.5502047538757324,3.9240312576293945,48.08574640519352,47.96466516118452,190.93895663835767,179.84573997134487,6.480216688942164e-05,0.0956125855445861,0,0,0,3.924,0.0014579296112056106,0.004585480307703449,3.14520006484508,3.7915110747115426
89,21421,705048.7812999857,2010-09-15 14:35:30,2791.419654571989,2,45,0.5500248074531555,3.9251651763916016,48.09033181653869,47.96466516118452,190.95695199367967,179.84573997134487,6.480216688942164e-05,0.0956125855445861,0,0,0,3.925,0.0011339187622070312,0.0045854113451753165,4.043862310074476,3.7439982271692673
90,21422,705078.7813777904,2010-09-15 14:36:00,2821.4197325770865,2,45,0.5502047538757324,3.9264612197875977,48.09491500125779,47.96466516118452,190.97494428807283,179.84573997134487,9.722709364723414e-05,0.0956125855445861,0,0,0,3.926,0.0012960433959960938,0.004583184719095357,3.5362895511480006,3.7018476758988563
91,21423,705108.7966159175,2010-09-15 14:36:30,2851.4349706991684,2,45,0.5500248074531555,3.927757024765015,48.099500548467255,47.96466516118452,190.99295174132948,179.84573997134487,3.237724376958795e-05,0.0956125855445861,0,0,0,3.928,0.0012958049774174363,0.004585547209465801,3.5387633859879775,3.6618215225950634
92,21424,705138.8118599944,2010-09-15 14:37:00,2881.450214796164,2,45,0.5498448610305786,3.9288909435272217,48.1040860110506,47.96466516118452,191.0109645913764,179.84573997134487,6.47544875391759e-05,0.0956125855445861,0,0,0,3.929,0.0011339187622065872,0.004585462583342803,4.043907496882377,3.6196746362737273
93,21425,705168.8271192343,2010-09-15 14:37:30,2911.465474015909,2,45,0.5500248074531555,3.9301869869232178,48.10867143811774,47.96466516118452,191.0289832582073,179.84573997134487,0.0,0.0956125855445861,0,0,0,3.93,0.0012960433959960938,0.004585427067141268,3.5380197000402664,3.5721146821732095
94,21426,705198.8421952816,2010-09-15 14:38:00,2941.48054986794,2,45,0.5498448610305786,3.9314827919006343,48.113256823097714,47.96466516118452,191.04700781436773,179.84573997134487,6.47544875391759e-05,0.0956125855445861,0,0,0,3.931,0.001295804977416548,0.004585384979975515,3.538638190075035,3.5182164926320567
95,21427,705228.8576795581,2010-09-15 14:38:30,2971.496034365011,2,45,0.5500248074531555,3.932940721511841,48.1178423667328,47.96466516118452,191.06503914598372,179.84573997134487,6.47544875391759e-05,0.0956125855445861,0,0,0,3.933,0.0014579296112064988,0.004585543635087674,3.1452435013600843,3.4597457017832287
96,21428,705258.8729841613,2010-09-15 14:39:00,3001.511338953002,2,45,0.5498448610305786,3.934074878692627,48.12242790342,47.96466516118452,191.0830766902889,179.84573997134487,0.0,0.0956125855445861,0,0,0,3.934,0.0011341571807861328,0.004585536687194747,4.0431227389631434,3.4007014100004156
97,21429,705288.8883557916,2010-09-15 14:39:30,3031.526710583341,2,45,0.5502047538757324,3.935694694519043,48.12701348219602,47.96466516118452,191.10112073339224,179.84573997134487,3.237724376958795e-05,0.0956125855445861,0,0,0,3.936,0.0016198158264160156,0.004585578776023169,2.83092602334252,3.345837454596913
98,21430,705318.9035196282,2010-09-15 14:40:00,3061.5418744099693,2,45,0.5500248074531555,3.937152624130249,48.13159900070958,47.96466516118452,191.119170909868,179.84573997134487,9.71794142969884e-05,0.0956125855445861,0,0,0,3.937,0.0014579296112060547,0.004585518513557929,3.1452262703990312,3.2991711044745866
99,21431,705348.9187831236,2010-09-15 14:40:31,3091.5571379304497,2,45,0.5500248074531555,3.938448429107666,48.13618458353061,47.96466516118452,191.1372278520717,179.84573997134487,6.47544875391759e-05,0.0956125855445861,0,0,0,3.938,0.0012958049774169922,0.004585582821029277,3.538790868182959,3.262472922850925
100,21432,705378.9341721674,2010-09-15 14:41:01,3121.572527099568,2,45,0.5500248074531555,3.940068483352661,48.14077021501861,47.96466516118452,191.15529135379467,179.84573997134487,6.480216688942164e-05,0.0956125855445861,0,0,0,3.94,0.0016200542449951172,0.004585631488005504,2.830541941525745,3.2344695623595783
101,21433,705408.9492811621,2010-09-15 14:41:31,3151.5876359439526,2,45,0.5500248074531555,3.941526412963867,48.14535574476497,47.96466516118452,191.1733611667939,179.84573997134487,6.480216688942164e-05,0.0956125855445861,0,0,0,3.942,0.0014579296112060547,0.004585529746357508,3.145233975023104,3.211229457831489
102,21434,705438.9645594296,2010-09-15 14:42:01,3181.602914216255,2,45,0.5500248074531555,3.942822217941284,48.14994126533863,47.96466516118452,191.19143761501252,179.84573997134487,3.237724376958795e-05,0.0956125855445861,0,0,0,3.943,0.0012958049774169922,0.0045855205736629046,3.538742830578954,3.1876623654357203
103,21435,705468.9798343284,2010-09-15 14:42:31,3211.618189110125,2,45,0.5496649146080017,3.94411826133728,48.15452679456976,47.96466516118452,191.20952091230515,179.84573997134487,3.237724376958795e-05,0.0956125855445861,0,0,0,3.944,0.0012960433959956497,0.00458552923112876,3.5380985276392334,3.159682000515893
104,21436,705498.99546485,2010-09-15 14:43:01,3241.633819631696,2,45,0.5500248074531555,3.945900201797485,48.15911233701802,47.96466516118452,191.22761103134653,179.84573997134487,6.480216688942164e-05,0.0956125855445861,0,0,0,3.946,0.0017819404602050781,0.004585542448261037,2.5733421237504768,3.12549921919826
105,21437,705529.0104446121,2010-09-15 14:43:31,3271.6487994991344,2,45,0.5500248074531555,3.9473581314086914,48.16369781933799,47.96466516118452,191.24570785463305,179.84573997134487,6.480216688942164e-05,0.0956125855445861,0,0,0,3.947,0.0014579296112064988,0.004585482319967582,3.1452014450635244,3.0859528462910366
106,21438,705559.0256696364,2010-09-15 14:44:01,3301.664024423272,2,45,0.5500248074531555,3.948653936386109,48.16828336474363,47.96466516118452,191.2638119873788,179.84573997134487,3.237724376958795e-05,0.0956125855445861,0,0,0,3.949,0.0012958049774174363,0.00458554540563938,3.5387619939371264,3.0436065244950457
107,21439,705589.0409070017,2010-09-15 14:44:31,3331.679261783452,2,45,0.5502047538757324,3.9504358768463135,48.17286889112752,47.96466516118452,191.28192298563835,179.84573997134487,6.480216688942164e-05,0.0956125855445861,0,0,0,3.95,0.001781940460204634,0.004585526383891647,2.5733331086522697,3.0013696666983214
108,21440,705619.0562085621,2010-09-15 14:45:01,3361.694563338873,2,45,0.5500248074531555,3.9520559310913086,48.177454354499325,47.96466516118452,191.300040885578,179.84573997134487,6.480216688942164e-05,0.0956125855445861,0,0,0,3.952,0.0016200542449951172,0.004585463371803655,2.830438169567264,2.9615066223086197
109,21441,705649.0715092955,2010-09-15 14:45:31,3391.70986408728,2,45,0.5500248074531555,3.953513860702514,48.182039831159685,47.96466516118452,191.31816605420576,179.84573997134487,0.0,0.0956125855445861,0,0,0,3.954,0.0014579296112056106,0.004585476660359689,3.1451975631167852,2.925126370214439
110,21442,705679.0867755829,2010-09-15 14:46:01,3421.725130364641,2,45,0.5500248074531555,3.95513367652893,48.18662541915204,47.96466516118452,191.3362990326872,179.84573997134487,3.237724376958795e-05,0.0956125855445861,0,0,0,3.955,0.0016198158264160156,0.0045855879923522025,2.830931713081368,2.892316594304418
111,21443,705709.1073676794,2010-09-15 14:46:31,3451.745722576354,2,45,0.5500248074531555,3.9567534923553462,48.19121175747954,47.96466516118452,191.35444230009705,179.84573997134487,3.237724376958795e-05,0.0956125855445861,0,0,0,3.957,0.0016198158264160156,0.004586338327506212,2.8313949355920833,2.8623795673376966
112,21444,705739.1173903879,2010-09-15 14:47:01,3481.755745174686,2,45,0.5500248074531555,3.958373546600342,48.19579650598078,47.96466516118452,191.37258668729976,179.84573997134487,3.24249267578125e-05,0.0956125855445861,0,0,0,3.958,0.0016200542449955613,0.004584748501237357,2.829996906214655,2.834268639894929
113,21445,705769.1325813422,2010-09-15 14:47:31,3511.7709362142427,2,45,0.5500248074531555,3.959993362426758,48.20038208533203,47.96466516118452,191.390741824395,179.84573997134487,6.480216688942164e-05,0.0956125855445861,0,0,0,3.96,0.0016198158264160156,0.004585579351250146,2.8309263784612737,2.8066690064243818
114,21446,705799.1478110985,2010-09-15 14:48:01,3541.786165880216,2,45,0.5500248074531555,3.961775302886963,48.20496764515998,47.96466516118452,191.40890442020404,179.84573997134487,9.71794142969884e-05,0.0956125855445861,0,0,0,3.962,0.0017819404602050781,0.004585559827951613,2.573351876989131,2.7780884013376936
115,21447,705829.1630836966,2010-09-15 14:48:31,3571.8014384883804,2,45,0.5498448610305786,3.963233232498169,48.20955322660516,47.96466516118452,191.42707478378284,179.84573997134487,3.237724376958795e-05,0.0956125855445861,0,0,0,3.963,0.0014579296112060547,0.004585581445176956,3.1452694354589514,2.7471988915151364
116,21448,705859.1783259842,2010-09-15 14:49:01,3601.8166807407724,2,45,0.5500248074531555,3.965015172958374,48.21413876632349,47.96466516118452,191.44525273681063,179.84573997134487,3.237724376958795e-05,0.0956125855445861,0,0,0,3.965,0.0017819404602050781,0.004585539718327425,2.573340591750012,2.713254854996741
117,21449,705889.1936084569,2010-09-15 14:49:31,3631.831963248648,2,45,0.5498448610305786,3.966797113418579,48.21872434031484,47.96466516118452,191.4634386528863,179.84573997134487,6.480216688942164e-05,0.0956125855445861,0,0,0,3.967,0.0017819404602050781,0.004585573991356284,2.5733598252932337,2.6765221665345926
118,21450,705919.2090257412,2010-09-15 14:50:01,3661.8473806181582,2,45,0.5500248074531555,3.968416929244995,48.22330992234545,47.96466516118452,191.48163252127168,179.84573997134487,0.0,0.0956125855445861,0,0,0,3.968,0.0016198158264160156,0.004585582030607327,2.830928032573511,2.6382605944309825
119,21451,705949.2241346557,2010-09-15 14:50:31,3691.8624894475056,2,45,0.5498448610305786,3.9701988697052,48.22789547520614,47.96466516118452,191.49983427997324,179.84573997134487,3.237724376958795e-05,0.0956125855445861,0,0,0,3.97,0.0017819404602050781,0.00458555286068929,2.5733479670592097,2.6003590827567167
120,21452,705979.2395320303,2010-09-15 14:51:01,3721.8778868120817,2,45,0.5500248074531555,3.9721426963806152,48.23248108718528,47.96466516118452,191.5180443250338,179.84573997134487,9.71794142969884e-05,0.0956125855445861,0,0,0,3.972,0.001943826675415039,0.004585611979138093,2.3590642299211115,2.56458584617556
121,21453,706009.2546763131,2010-09-15 14:51:31,3751.8930311049503,2,45,0.5500248074531555,3.97392463684082,48.237066645974245,47.96466516118452,191.53626239524667,179.84573997134487,6.480216688942164e-05,0.0956125855445861,0,0,0,3.974,0.001781940460204634,0.004585558788967603,2.573351293926514,2.5318950054870357
122,21454,706039.2699601745,2010-09-15 14:52:01,3781.9083149561793,2,45,0.5500248074531555,3.9757065773010254,48.2416522702754,47.96466516118452,191.554489108807,179.84573997134487,6.480216688942164e-05,0.0956125855445861,0,0,0,3.976,0.0017819404602055222,0.004585624301157054,2.5733880584473434,2.5022072313889616
123,21455,706069.2852140459,2010-09-15 14:52:31,3811.9235688275735,2,45,0.5502047538757324,3.97765040397644,48.24623784097406,47.96466516118452,191.5727240772151,179.84573997134487,9.71794142969884e-05,0.0956125855445861,0,0,0,3.978,0.001943826675414595,0.004585570698658614,2.3590429932136656,2.474551755835262
124,21456,706099.3005771799,2010-09-15 14:53:01,3841.9389320068167,2,45,0.5498448610305786,3.9794323444366455,48.250823450220686,47.96466516118452,191.5909677710931,179.84573997134487,6.480216688942164e-05,0.0956125855445861,0,0,0,3.979,0.0017819404602055222,0.004585609246625211,2.5733796100551665,2.447601817554633
125,21457,706129.315826119,2010-09-15 14:53:31,3871.954180991012,2,45,0.5502047538757324,3.98137640953064,48.255409120511786,47.96466516118452,191.60921995240489,179.84573997134487,9.722709364723414e-05,0.0956125855445861,0,0,0,3.981,0.0019440650939945847,0.004585670291099575,2.3588049110419083,2.420341558031455
126,21458,706159.3310356748,2010-09-15 14:54:01,3901.9693904565634,2,45,0.5500248074531555,3.983320236206055,48.25999457787688,47.96466516118452,191.62748055525384,179.84573997134487,6.480216688942164e-05,0.0956125855445861,0,0,0,3.983,0.001943826675415039,0.004585457365095635,2.358984688856873,2.392487308571758
127,21459,706189.3462910249,2010-09-15 14:54:31,3931.984645816673,2,45,0.5498448610305786,3.98510217666626,48.26458005622639,47.96466516118452,191.64575019448705,179.84573997134487,3.24249267578125e-05,0.0956125855445861,0,0,0,3.985,0.0017819404602050781,0.004585478349511618,2.5733061524310914,2.364608936707287
128,21460,706219.3615623248,2010-09-15 14:55:01,3961.9999171065474,2,45,0.5498448610305786,3.987208127975464,48.269165573414455,47.96466516118452,191.6640289591376,179.84573997134487,3.24249267578125e-05,0.0956125855445861,0,0,0,3.987,0.0021059513092036575,0.004585517188061772,2.17740893059666,2.3377219607470785
129,21461,706249.3768347173,2010-09-15 14:55:31,3992.0151894991727,2,45,0.5500248074531555,3.989313840866089,48.27375105409906,47.96466516118452,191.68231673583048,179.84573997134487,6.480216688942164e-05,0.0956125855445861,0,0,0,3.989,0.002105712890625,0.004585480684603738,2.1776381314941347,2.312800427949055
130,21462,706279.3921033106,2010-09-15 14:56:01,4022.03045810234,2,45,0.5502047538757324,3.991257905960083,48.2783365633924,47.96466516118452,191.700613879126,179.84573997134487,9.722709364723414e-05,0.0956125855445861,0,0,0,3.991,0.0019440650939941406,0.004585509293342227,2.358722096039058,2.2901740848530534
131,21463,706309.4075131513,2010-09-15 14:56:31,4052.0458679330336,2,45,0.5500248074531555,3.993201732635498,48.282921732801306,47.96466516118452,191.7189189410595,179.84573997134487,3.24249267578125e-05,0.0956125855445861,0,0,0,3.993,0.001943826675415039,0.0045851694089051875,2.3588365500366324,2.2694810345071854
132,21464,706339.4226257551,2010-09-15 14:57:01,4082.0609805468266,2,45,0.5500248074531555,3.995307683944702,48.28750657294974,47.96466516118452,191.73723205617736,179.84573997134487,6.480216688942164e-05,0.0956125855445861,0,0,0,3.995,0.0021059513092041016,0.004584840148432079,2.1770874418577226,2.2500351034000583
133,21465,706369.4379000674,2010-09-15 14:57:31,4112.076254849219,2,45,0.5498448610305786,3.997413396835327,48.29209147031918,47.96466516118452,191.75555491498432,179.84573997134487,6.480216688942164e-05,0.0956125855445861,0,0,0,3.997,0.002105712890625,0.004584897369440455,2.1773611159684756,2.23138800431033
134,21466,706399.453357868,2010-09-15 14:58:01,4142.091712739877,2,45,0.5496649146080017,3.999357461929321,48.296676307338615,47.96466516118452,191.7738870852077,179.84573997134487,0.0,0.0956125855445861,0,0,0,3.999,0.0019440650939936965,0.00458483701943635,2.358376287708407,2.2136673299079237
135,21467,706429.4687833076,2010-09-15 14:58:31,4172.107138099333,2,45,0.5500248074531555,4.001463413238525,48.30126147850105,47.96466516118452,191.79223029846,179.84573997134487,3.24249267578125e-05,0.0956125855445861,0,0,0,4.001,0.0021059513092045457,0.004585171162432289,2.177244622129553,2.197398826078562
136,21468,706459.4838272248,2010-09-15 14:59:01,4202.122182016649,2,45,0.5498448610305786,4.00373125076294,48.3058469535143,47.96466516118452,191.81058448192445,179.84573997134487,6.4849853515625e-05,0.0956125855445861,0,0,0,4.004,0.0022678375244149507,0.004585475013250573,2.021959229391232,2.182859111354901
137,21469,706489.4990917179,2010-09-15 14:59:31,4232.137446499532,2,45,0.5502047538757324,4.0058369636535645,48.31043243941509,47.96466516118452,191.82894843925737,179.84573997134487,3.24249267578125e-05,0.0956125855445861,0,0,0,4.006,0.002105712890624112,0.0045854859007903315,2.1776406086545066,2.16942909868958
138,21470,706519.5142589579,2010-09-15 15:00:01,4262.152613739681,2,45,0.5500248074531555,4.0081048011779785,48.31501790216897,47.96466516118452,191.84732209905692,179.84573997134487,9.71794142969884e-05,0.0956125855445861,0,0,0,4.008,0.0022678375244140625,0.004585462753880165,2.021953823638624,2.1556999243329096
139,21471,706549.5295038719,2010-09-15 15:00:31,4292.1678586587295,2,45,0.5496649146080017,4.009886741638184,48.319603359729776,47.96466516118452,191.86570563497912,179.84573997134487,0.0,0.0956125855445861,0,0,0,4.01,0.0017819404602050781,0.0045854575608075265,2.573294486101853,2.140237910798204
140,21472,706579.5447954825,2010-09-15 15:01:01,4322.183150274338,2,45,0.5498448610305786,4.012154579162598,48.32418891717613,47.96466516118452,191.8840994637497,179.84573997134487,0.0,0.0956125855445861,0,0,0,4.012,0.0022678375244140625,0.004585557446354471,2.0219955781617265,2.1226741193408665
141,21473,706609.560049389,2010-09-15 15:01:31,4352.198404175808,2,45,0.5500248074531555,4.014422416687012,48.32877439102166,47.96466516118452,191.9025028787256,179.84573997134487,3.23295607813634e-05,0.0956125855445861,0,0,0,4.014,0.0022678375244140625,0.00458547384553043,2.021958714487349,2.1041619342990767
142,21474,706639.5755130441,2010-09-15 15:02:01,4382.2138678258425,2,45,0.5500248074531555,4.016690254211426,48.33335992757016,47.96466516118452,191.9209165979079,179.84573997134487,3.23295607813634e-05,0.0956125855445861,0,0,0,4.017,0.0022678375244140625,0.004585536548496805,2.0219863632786312,2.0867412239627625
143,21475,706669.5907310359,2010-09-15 15:02:31,4412.229085937976,2,45,0.5500248074531555,4.018958568572998,48.3379454298683,47.96466516118452,191.9393402421581,179.84573997134487,6.4849853515625e-05,0.0956125855445861,0,0,0,4.019,0.0022683143615722656,0.004585502298141364,2.021546208860996,2.072057303167819
144,21476,706699.6058447926,2010-09-15 15:03:01,4442.244199579335,2,45,0.5502047538757324,4.021226406097412,48.34253097767809,47.96466516118452,191.95777434076257,179.84573997134487,3.24249267578125e-05,0.0956125855445861,0,0,0,4.021,0.0022678375244140625,0.004585547809789148,2.0219913289308096,2.0602950205517754
145,21477,706729.6211343029,2010-09-15 15:03:31,4472.25948910974,2,45,0.5500248074531555,4.023332118988037,48.3471166817319,47.96466516118452,191.976219329104,179.84573997134487,0.0,0.0956125855445861,0,0,0,4.023,0.002105712890625,0.004585704053809536,2.1777442092062445,2.0499741634066844
146,21478,706759.636385658,2010-09-15 15:04:01,4502.274740444803,2,45,0.5500248074531555,4.025599956512451,48.35170224498032,47.96466516118452,191.9946741988924,179.84573997134487,3.24249267578125e-05,0.0956125855445861,0,0,0,4.026,0.0022678375244140625,0.004585563248426183,2.0219981365776842,2.0386765479037616
147,21479,706789.65165374,2010-09-15 15:04:31,4532.290008521655,2,45,0.5500248074531555,4.028029918670654,48.356287799068966,47.96466516118452,192.01313942204052,179.84573997134487,9.71794142969884e-05,0.0956125855445861,0,0,0,4.028,0.002429962158203125,0.004585554088642141,1.8870886829089566,2.0242215746226635
148,21480,706819.6669341676,2010-09-15 15:05:01,4562.305288949338,2,45,0.5498448610305786,4.029973983764648,48.36087326499145,47.96466516118452,192.03161478550052,179.84573997134487,0.0,0.0956125855445861,0,0,0,4.03,0.0019440650939941406,0.004585465922481546,2.3586997866725583,2.005657960783257
149,21481,706849.682169613,2010-09-15 15:05:31,4592.320524399752,2,45,0.5500248074531555,4.032403469085693,48.365458736907286,47.96466516118452,192.05010076592737,179.84573997134487,3.23295607813634e-05,0.0956125855445861,0,0,0,4.032,0.002429485321044922,0.004585471915838468,1.8874252402835083,1.9836115700468886
150,21482,706879.697481434,2010-09-15 15:06:01,4622.335836215785,2,45,0.5500248074531555,4.0348334312438965,48.3700442595745,47.96466516118452,192.0685976221729,179.84573997134487,3.23295607813634e-05,0.0956125855445861,0,0,0,4.035,0.002429962158203125,0.004585522667213127,1.887075752078364,1.9598810369122053
151,21483,706909.712703902,2010-09-15 15:06:31,4652.351058693817,2,45,0.5500248074531555,4.0372633934021,48.37462967567241,47.96466516118452,192.08710491374023,179.84573997134487,6.47544875391759e-05,0.0956125855445861,0,0,0,4.037,0.002429962158203125,0.004585416097910411,1.8870318957152696,1.936524518351093
152,21484,706939.7279877983,2010-09-15 15:07:01,4682.366342605195,2,45,0.5500248074531555,4.039693355560303,48.37921511105938,47.96466516118452,192.1056231767592,179.84573997134487,6.4849853515625e-05,0.0956125855445861,0,0,0,4.04,0.002429962158203125,0.004585435386971426,1.8870398337240777,1.9149280834082192
153,21485,706969.7433668121,2010-09-15 15:07:31,4712.381721598914,2,45,0.5498448610305786,4.042123317718506,48.38380057927824,47.96466516118452,192.12415268219908,179.84573997134487,6.4849853515625e-05,0.0956125855445861,0,0,0,4.042,0.002429962158203125,0.004585468218856192,1.8870533449981755,1.8954141897391974
154,21486,706999.7585561475,2010-09-15 15:08:01,4742.396910934216,2,45,0.5498448610305786,4.04439115524292,48.38838604184297,47.96466516118452,192.14269323821745,179.84573997134487,3.24249267578125e-05,0.0956125855445861,0,0,0,4.044,0.0022678375244140625,0.004585462564733689,2.021953740234732,1.877422416199829
155,21487,707029.7737871367,2010-09-15 15:08:31,4772.412141918481,2,45,0.5500248074531555,4.046982765197754,48.39297150712634,47.96466516118452,192.16124513899845,179.84573997134487,3.23295607813634e-05,0.0956125855445861,0,0,0,4.047,0.0025916099548339844,0.004585465283369672,1.7693500809474285,1.8600988713638895
156,21488,707059.7890371335,2010-09-15 15:09:01,4802.427391915204,2,45,0.5500248074531555,4.049574851989746,48.397557039786186,47.96466516118452,192.17980868505745,179.84573997134487,6.4849853515625e-05,0.0956125855445861,0,0,0,4.05,0.0025920867919921875,0.004585532659845626,1.7690505865821513,1.8427665487709382
157,21489,707089.8043050399,2010-09-15 15:09:31,4832.442659821631,2,45,0.5498448610305786,4.052004814147949,48.40214252750054,47.96466516118452,192.1983835177664,179.84573997134487,6.4849853515625e-05,0.0956125855445861,0,0,0,4.052,0.002429962158203125,0.0045854877143511885,1.887061367960562,1.8251834283358732
158,21490,707119.8196123848,2010-09-15 15:10:01,4862.457967171516,2,45,0.5498448610305786,4.054434299468994,48.40672801105868,47.96466516118452,192.2169698731311,179.84573997134487,3.23295607813634e-05,0.0956125855445861,0,0,0,4.054,0.002429485321044922,0.0045854835581451425,1.887430032371188,1.8075672503481859
159,21491,707149.8348655493,2010-09-15 15:10:31,4892.473220351185,2,45,0.5498448610305786,4.057026386260986,48.41131352404922,47.96466516118452,192.2355680742951,179.84573997134487,3.24249267578125e-05,0.0956125855445861,0,0,0,4.057,0.0025920867919921875,0.004585512990537666,1.769042998368662,1.7904895404775696
160,21492,707179.8501142177,2010-09-15 15:11:01,4922.488468994529,2,45,0.5500248074531555,4.059780120849609,48.41589910538213,47.96466516118452,192.25417836132533,179.84573997134487,6.47544875391759e-05,0.0956125855445861,0,0,0,4.06,0.002753734588623047,0.004585581332911204,1.665222694974441,1.7745386071555784
161,21493,707209.8653891217,2010-09-15 15:11:31,4952.50374391346,2,45,0.5500248074531555,4.062372207641602,48.4204846236795,47.96466516118452,192.27280029809285,179.84573997134487,9.71794142969884e-05,0.0956125855445861,0,0,0,4.062,0.0025920867919921875,0.004585518297368196,1.7690450456884304,1.7599097736137814
162,21494,707239.8806533439,2010-09-15 15:12:01,4982.519008120655,2,45,0.5500248074531555,4.064963817596436,48.425070185227554,47.96466516118452,192.29143413229937,179.84573997134487,9.71794142969884e-05,0.0956125855445861,0,0,0,4.065,0.0025916099548348726,0.004585561548054784,1.7693872256895844,1.7461469097862417
163,21495,707269.8959108143,2010-09-15 15:12:32,5012.534265591033,2,45,0.5500248074531555,4.067718029022217,48.42965569181875,47.96466516118452,192.31007992489657,179.84573997134487,0.0001296043337788,0.0956125855445861,0,0,0,4.068,0.002754211425780362,0.004585506591197941,1.6649072574008041,1.732205569766131
164,21496,707299.911172054,2010-09-15 15:13:02,5042.549526835833,2,45,0.5498448610305786,4.070147514343262,48.4342412242131,47.96466516118452,192.32873809554812,179.84573997134487,3.23295607813634e-05,0.0956125855445861,0,0,0,4.07,0.002429485321044922,0.004585532394351333,1.887450133832912,1.7170536398660707
165,21497,707329.9264392387,2010-09-15 15:13:32,5072.564794020459,2,45,0.5498448610305786,4.072901725769043,48.438826670957965,47.96466516118452,192.34740831606013,179.84573997134487,6.4849853515625e-05,0.0956125855445861,0,0,0,4.073,0.00275421142578125,0.004585446744862054,1.66488552837274,1.7002702186752312
166,21498,707359.9417261977,2010-09-15 15:14:02,5102.580080994482,2,45,0.5500248074531555,4.075655460357666,48.44341217541098,47.96466516118452,192.3660911899157,179.84573997134487,6.4849853515625e-05,0.0956125855445861,0,0,0,4.076,0.002753734588623047,0.004585504453011424,1.665194776561353,1.682349014965848
167,21499,707389.9569722295,2010-09-15 15:14:32,5132.595327011271,2,45,0.5498448610305786,4.078409194946289,48.44799760882566,47.96466516118452,192.3847864093241,179.84573997134487,6.47544875391759e-05,0.0956125855445861,0,0,0,4.078,0.002753734588623047,0.004585433414682427,1.6651689794749924,1.6644487674720425
168,21500,707419.9725246812,2010-09-15 15:15:02,5162.610879472993,2,45,0.5500248074531555,4.081325054168701,48.45258307258912,47.96466516118452,192.4034943839839,179.84573997134487,6.47544875391759e-05,0.0956125855445861,0,0,0,4.081,0.0029158592224121094,0.004585463763461917,1.5725943585399322,1.6477971293548608
169,21501,707449.9876293602,2010-09-15 15:15:32,5192.625984141954,2,45,0.5500248074531555,4.084078788757324,48.45716852722681,47.96466516118452,192.4222151323839,179.84573997134487,9.71794142969884e-05,0.0956125855445861,0,0,0,4.084,0.002753734588623047,0.004585454637691555,1.6651766864665143,1.6330719124554327
170,21502,707480.0027815278,2010-09-15 15:16:02,5222.64113630948,2,45,0.5498448610305786,4.086994647979736,48.46175396350852,47.96466516118452,192.44094861528228,179.84573997134487,9.71794142969884e-05,0.0956125855445861,0,0,0,4.087,0.0029158592224121094,0.004585436281708155,1.5725849336151791,1.6201743796964978
171,21503,707510.0180376348,2010-09-15 15:16:32,5252.6563924114425,2,45,0.5500248074531555,4.089748859405518,48.46633943730806,47.96466516118452,192.4596953776632,179.84573997134487,0.0001296043337788,0.0956125855445861,0,0,0,4.09,0.00275421142578125,0.004585473799536999,1.6648953513931122,1.6083601727043142
172,21504,707540.0333055111,2010-09-15 15:17:02,5282.671660287796,2,45,0.5500248074531555,4.09266471862793,48.47092492662527,47.96466516118452,192.4784554086851,179.84573997134487,6.4849853515625e-05,0.0956125855445861,0,0,0,4.093,0.0029158592224121094,0.004585489317214808,1.5726031222527668,1.5966280122804895
173,21505,707570.0485825853,2010-09-15 15:17:32,5312.686937377145,2,45,0.5500248074531555,4.095580577850342,48.4755103745344,47.96466516118452,192.49722855052968,179.84573997134487,9.72747802734375e-05,0.0956125855445861,0,0,0,4.096,0.0029158592224121094,0.004585447909128959,1.5725889212633875,1.5841832566700171
174,21506,707600.0640447317,2010-09-15 15:18:02,5342.702399513401,2,45,0.5500248074531555,4.098334312438965,48.480095840298176,47.96466516118452,192.5160151274423,179.84573997134487,3.24249267578125e-05,0.0956125855445861,0,0,0,4.098,0.002753734588623047,0.004585465763774721,1.6651807268279972,1.5707270804709546
175,21507,707630.0792469892,2010-09-15 15:18:32,5372.717601770959,2,45,0.5500248074531555,4.101412296295166,48.48468134836978,47.96466516118452,192.53481535473097,179.84573997134487,9.72747802734375e-05,0.0956125855445861,0,0,0,4.101,0.003077983856201172,0.0045855080716066254,1.4897765179529012,1.5565632775226232
176,21508,707660.0943669414,2010-09-15 15:19:02,5402.732721728083,2,45,0.5500248074531555,4.104328155517578,48.4892668642852,47.96466516118452,192.5536292434996,179.84573997134487,6.4849853515625e-05,0.0956125855445861,0,0,0,4.104,0.0029158592224121094,0.004585515915415783,1.5726122441612496,1.5424065745559257
177,21509,707690.1097562057,2010-09-15 15:19:32,5432.748111087676,2,45,0.5500248074531555,4.107405662536621,48.49385244624564,47.96466516118452,192.57245700463315,179.84573997134487,6.47544875391759e-05,0.0956125855445861,0,0,0,4.107,0.0030775070190429688,0.004585581960441232,1.4900313572208321,1.5290324698721187
178,21510,707720.1249039823,2010-09-15 15:20:02,5462.763258774017,2,45,0.5500248074531555,4.110483646392822,48.49843795239222,47.96466516118452,192.5912983155493,179.84573997134487,9.71794142969884e-05,0.0956125855445861,0,0,0,4.11,0.003077983856201172,0.004585506146582929,1.4897758925358147,1.5169042925735101
179,21511,707750.1402893518,2010-09-15 15:20:32,5492.778644143651,2,45,0.5502047538757324,4.113561630249023,48.50302343500431,47.96466516118452,192.610153428472,179.84573997134487,0.0001296043337788,0.0956125855445861,0,0,0,4.114,0.003077983856201172,0.004585482612085912,1.4897682464602933,1.5059116863782096
180,21512,707780.1554623514,2010-09-15 15:21:02,5522.793817153201,2,45,0.5500248074531555,4.116477489471436,48.50760890759232,47.96466516118452,192.6290225338046,179.84573997134487,9.72747802734375e-05,0.0956125855445861,0,0,0,4.116,0.0029158592224129976,0.004585472588011896,1.5725973849372683,1.4953992774918587
181,21513,707810.1708447987,2010-09-15 15:21:32,5552.809199590516,2,45,0.5500248074531555,4.119717121124268,48.5121943894596,47.96466516118452,192.647905811944,179.84573997134487,0.0001296043337788,0.0956125855445861,0,0,0,4.12,0.003239631652831143,0.004585481867280805,1.4154330981651915,1.4844275447029958
182,21514,707840.1859664101,2010-09-15 15:22:02,5582.8243211967565,2,45,0.5498448610305786,4.122795104980469,48.51677986614568,47.96466516118452,192.6668034010154,179.84573997134487,9.71794142969884e-05,0.0956125855445861,0,0,0,4.123,0.003077983856201172,0.004585476686081336,1.4897663211725554,1.472130983141062
183,21515,707870.2013584313,2010-09-15 15:22:32,5612.839713212982,2,45,0.5500248074531555,4.125710964202881,48.52136540768088,47.96466516118452,192.68571571882444,179.84573997134487,6.4849853515625e-05,0.0956125855445861,0,0,0,4.126,0.0029158592224121094,0.004585541535199411,1.5726210305194628,1.4580746705355558
184,21516,707900.2164958168,2010-09-15 15:23:02,5642.85485059861,2,45,0.5500248074531555,4.129112720489502,48.52595090206635,47.96466516118452,192.70464233818333,179.84573997134487,6.4849853515625e-05,0.0956125855445861,0,0,0,4.129,0.0034017562866210938,0.004585494385466404,1.3479785143635605,1.4424181780586014
185,21517,707930.2317606907,2010-09-15 15:23:32,5672.87011547748,2,45,0.5498448610305786,4.132190704345703,48.53053636555265,47.96466516118452,192.723583550323,179.84573997134487,6.4849853515625e-05,0.0956125855445861,0,0,0,4.132,0.003077983856201172,0.004585463486300512,1.489762032722245,1.4258640195582286
186,21518,707960.2470548378,2010-09-15 15:24:02,5702.885409624409,2,45,0.5500248074531555,4.135592460632324,48.535121886563815,47.96466516118452,192.74253987328672,179.84573997134487,9.71794142969884e-05,0.0956125855445861,0,0,0,4.136,0.0034017562866210938,0.004585521011165383,1.3479863414083972,1.4094085209969094
187,21519,707990.2623154108,2010-09-15 15:24:32,5732.900670212569,2,45,0.5500248074531555,4.138832092285156,48.53970736073664,47.96466516118452,192.76151094924435,179.84573997134487,9.71794142969884e-05,0.0956125855445861,0,0,0,4.139,0.0032396316528320312,0.00458547417282773,1.4154307230635885,1.3939773984195885
188,21520,708020.2775683248,2010-09-15 15:25:02,5762.915923116549,2,45,0.5500248074531555,4.142233848571777,48.544292891708935,47.96466516118452,192.7804975046583,179.84573997134487,9.71794142969884e-05,0.0956125855445861,0,0,0,4.142,0.0034017562866210938,0.004585530972292418,1.3479892696390507,1.380148245083263
189,21521,708050.2928320257,2010-09-15 15:25:32,5792.931186812467,2,45,0.5500248074531555,4.145635604858398,48.54887841431879,47.96466516118452,192.79949920413972,179.84573997134487,0.0001295089750783,0.0956125855445861,0,0,0,4.146,0.0034017562866210938,0.004585522609858117,1.3479868113693818,1.3680236934639312
190,21522,708080.3082645431,2010-09-15 15:26:02,5822.9466193297885,2,45,0.5500248074531555,4.149037837982178,48.55346392866347,47.96466516118452,192.81851635009392,179.84573997134487,0.0001296043337788,0.0956125855445861,0,0,0,4.149,0.003402233123779297,0.004585514344675801,1.3477954560568388,1.357355609180937
191,21523,708110.323365979,2010-09-15 15:26:32,5852.961720770693,2,45,0.5500248074531555,4.15227746963501,48.55804940492197,47.96466516118452,192.83754905103817,179.84573997134487,9.71794142969884e-05,0.0956125855445861,0,0,0,4.152,0.0032396316528320312,0.0045854762584980335,1.4154313668621825,1.347756106296384
192,21524,708140.3387572232,2010-09-15 15:27:02,5882.977112009979,2,45,0.5500248074531555,4.15584135055542,48.56263483653241,47.96466516118452,192.8565972247337,179.84573997134487,0.0001296043337788,0.0956125855445861,0,0,0,4.156,0.0035638809204101562,0.004585431610443891,1.2866399615608277,1.3389148958349426
193,21525,708170.3540297511,2010-09-15 15:27:32,5912.992384537943,2,45,0.5500248074531555,4.159243106842041,48.567220263078255,47.96466516118452,192.87566109963257,179.84573997134487,9.71794142969884e-05,0.0956125855445861,0,0,0,4.159,0.0034017562866210938,0.004585426545844484,1.3479585718349947,1.3306111997463872
194,21526,708200.3691901241,2010-09-15 15:28:02,5943.007544925988,2,45,0.5498448610305786,4.162806987762451,48.57180566994038,47.96466516118452,192.8947407952934,179.84573997134487,0.0001296043337788,0.0956125855445861,0,0,0,4.163,0.0035638809204101562,0.0045854068621267174,1.2866330173565386,1.3226351629021327
195,21527,708230.3845632031,2010-09-15 15:28:32,5973.022917989906,2,45,0.5498448610305786,4.166370868682861,48.57639116550043,47.96466516118452,192.91383686664184,179.84573997134487,0.0001296043337788,0.0956125855445861,0,0,0,4.166,0.0035638809204101562,0.00458549556005039,1.2866579053720626,1.3146597746772926
196,21528,708260.3996967842,2010-09-15 15:29:02,6003.0380515660245,2,45,0.5498448610305786,4.169610500335693,48.58097661590238,47.96466516118452,192.9329487656261,179.84573997134487,9.71794142969884e-05,0.0956125855445861,0,0,0,4.17,0.0032396316528320312,0.004585450401947355,1.4154233855379306,1.3062312692703508
197,21529,708290.4150496378,2010-09-15 15:29:32,6033.053404509718,2,45,0.5500248074531555,4.173336505889893,48.58556213521496,47.96466516118452,192.952077132118,179.84573997134487,0.0001296043337788,0.0956125855445861,0,0,0,4.173,0.0037260055541992188,0.004585519312577446,1.2306796771705166,1.2968515862789187
198,21530,708320.430368792,2010-09-15 15:30:02,6063.068723578856,2,45,0.5498448610305786,4.176738262176514,48.5901476478119,47.96466516118452,192.97122184297515,179.84573997134487,6.4849853515625e-05,0.0956125855445861,0,0,0,4.177,0.0034017562866210938,0.004585512596939623,1.3479838679138105,1.2859497754907143
199,21531,708350.4458365224,2010-09-15 15:30:32,6093.0841913140885,2,45,0.5500248074531555,4.180463790893555,48.59473317816408,47.96466516118452,192.9903830974472,179.84573997134487,9.71794142969884e-05,0.0956125855445861,0,0,0,4.18,0.0037255287170410156,0.004585530352180456,1.2308401573193328,1.272825625587878
200,21532,708380.4608992266,2010-09-15 15:31:02,6123.099254013287,2,45,0.5498448610305786,4.184189796447754,48.59931870461399,47.96466516118452,193.0095609983367,179.84573997134487,0.0001296043337788,0.0956125855445861,0,0,0,4.184,0.0037260055541992188,0.004585526449915278,1.2306815927172672,1.2566523852684752
201,21533,708410.4760763112,2010-09-15 15:31:32,6153.114431108035,2,45,0.5500248074531555,4.187753677368164,48.60390419671041,47.96466516118452,193.02875545432505,179.84573997134487,9.71794142969884e-05,0.0956125855445861,0,0,0,4.188,0.0035638809204101562,0.004585492096417454,1.2866569335009441,1.2369204834331569
202,21534,708440.4913123532,2010-09-15 15:32:02,6183.129667134886,2,45,0.5500248074531555,4.191155433654785,48.6084896721714,47.96466516118452,193.0479665958465,179.84573997134487,0.0,0.0956125855445861,0,0,0,4.191,0.0034017562866210938,0.004585475460991972,1.3479729512153402,1.214235155863311
203,21535,708470.5065686456,2010-09-15 15:32:32,6213.144923427325,2,45,0.5498448610305786,4.195043087005615,48.61307517781465,47.96466516118452,193.06719493688857,179.84573997134487,6.47544875391759e-05,0.0956125855445861,0,0,0,4.195,0.003887653350830078,0.004585505643248666,1.1795047627560686,1.1910553951238578
204,21536,708500.5218396096,2010-09-15 15:33:02,6243.160194396397,2,45,0.5498448610305786,4.198769092559815,48.617660658174046,47.96466516118452,193.08644026440916,179.84573997134487,9.71794142969884e-05,0.0956125855445861,0,0,0,4.199,0.003726005554200107,0.004585480359395433,1.230669222762293,1.1715434425335411
205,21537,708508.224869362,2010-09-15 15:33:10,6250.863224143728,2,45,0.5500248074531555,4.2000651359558105,48.61883744082974,47.96466516118452,193.09138201104992,179.84573997134487,0.0001296043337788,0.0956125855445861,0,0,0,4.2,0.0012960433959952056,0.0011767826556976502,0.907980905063771,1.1602789563757518
